

Water liq:
     x(mm)       Elastic      ExcitRot     ExcitVibr ExcitElectr DisNeutr    Ioniz    Attach     Auger
     1e-05   7.53502e+07   1.62268e+07   2.38026e+06     24518     99735    205566     17471      1715
     3e-05   8.82523e+07   1.87743e+07    2.7913e+06     27487    109357    220542     20268      1683
     5e-05   9.08444e+07   1.92809e+07    2.8724e+06     27961    112701    226933     20551      1708
     7e-05   9.30271e+07   1.97689e+07   2.94332e+06     28799    114956    232919     21060      1785
     9e-05   9.57441e+07   2.03067e+07   3.02813e+06     29832    118649    238809     21552      1836
   0.00011   9.82159e+07   2.08267e+07   3.10502e+06     30649    121999    245413     22078      1922
   0.00013   1.01169e+08   2.14662e+07    3.2005e+06     31231    125269    251891     22810      1962
   0.00015   1.04568e+08    2.2192e+07   3.30205e+06     32231    129991    260985     23728      2004
   0.00017   1.06862e+08    2.2676e+07     3.382e+06     33248    132523    266634     24305      2042
   0.00019   1.11009e+08   2.36071e+07   3.51402e+06     34163    138359    277028     25263      2158
   0.00021   1.14783e+08   2.43404e+07   3.62785e+06     35615    143194    287145     25993      2157
   0.00023   1.19338e+08   2.53425e+07   3.77445e+06     36888    148460    297784     27217      2209
   0.00025   1.23374e+08   2.61794e+07   3.90895e+06     38024    153379    308245     28170      2294
   0.00027   1.27963e+08   2.71643e+07   4.04783e+06     39831    160283    319410     28823      2403
   0.00029    1.3365e+08   2.84173e+07   4.23102e+06     41704    168096    333588     30354      2496
   0.00031    1.4023e+08   2.97883e+07   4.43398e+06     43513    175442    349134     31714      2730
   0.00033   1.45751e+08   3.09615e+07    4.6144e+06     45641    184463    363330     33040      2796
   0.00035   1.51516e+08   3.21471e+07   4.79077e+06     47440    192209    378151     34411      2796
   0.00037   1.58724e+08   3.36984e+07   5.01745e+06     49814    200637    395829     36057      3019
   0.00039   1.64345e+08   3.48693e+07   5.19466e+06     51543    208423    409844     37001      2989
   0.00041   1.71176e+08   3.63281e+07    5.4151e+06     54277    219515    426525     39214      3194
   0.00043   1.78421e+08   3.79141e+07   5.64562e+06     56751    227793    444996     40652      3305
   0.00045   1.83917e+08   3.90193e+07   5.81585e+06     58049    236331    458515     41770      3335
   0.00047   1.91384e+08   4.06188e+07    6.0526e+06     60331    246916    476242     43102      3554
   0.00049   1.95586e+08   4.15362e+07   6.18336e+06     61843    252716    487130     44228      3486
   0.00051   1.99786e+08   4.24546e+07   6.32034e+06     63484    258068    496758     45178      3601
   0.00053   2.03886e+08   4.32657e+07   6.44539e+06     64721    264078    506875     45964      3583
   0.00055   2.06137e+08   4.37979e+07   6.52523e+06     66041    267460    513665     46827      3635
   0.00057   2.07662e+08   4.40696e+07    6.5675e+06     66156    269308    516112     46673      3634
   0.00059   2.06907e+08   4.40034e+07   6.55016e+06     66333    268973    514687     47232      3585
   0.00061    2.0563e+08   4.36795e+07   6.50172e+06     66081    269612    512355     47071      3641
   0.00063   2.02258e+08   4.29929e+07   6.40278e+06     65353    263589    503070     46315      3393
   0.00065   1.98133e+08   4.21207e+07   6.26932e+06     63521    257381    492318     44869      3301
   0.00067   1.93195e+08   4.11029e+07   6.11248e+06     62448    251013    479530     43992      3235
   0.00069   1.87836e+08   3.98956e+07   5.93744e+06     60912    244895    466155     43091      3196
   0.00071   1.78649e+08   3.79345e+07    5.6532e+06     57782    232476    442778     40505      2841
   0.00073   1.69791e+08   3.60351e+07   5.37067e+06     55011    221338    421188     38110      2758
   0.00075   1.60378e+08   3.40825e+07   5.07526e+06     52314    208550    397343     36337      2506
   0.00077    1.4934e+08   3.17278e+07   4.72148e+06     48673    194476    370295     33654      2383
   0.00079   1.38521e+08   2.94146e+07   4.38137e+06     45420    180369    343472     31405      2202
   0.00081   1.28378e+08   2.72802e+07   4.06018e+06     41982    167160    317433     28964      2027
   0.00083   1.15418e+08   2.44947e+07   3.65042e+06     37882    150461    285712     26102      1764
   0.00085    1.0397e+08   2.20577e+07   3.28679e+06     34334    135973    256963     23788      1574
   0.00087   9.37944e+07   1.99441e+07   2.96478e+06     30923    122839    232663     21612      1432
   0.00089   8.32395e+07    1.7663e+07   2.62858e+06     27373    108108    205135     18833      1246
   0.00091   7.17048e+07   1.52533e+07    2.2672e+06     24177     93521    177106     16306      1013
   0.00093   6.17663e+07   1.31218e+07   1.95224e+06     20360     80449    152065     14026       884
   0.00095   5.32091e+07   1.13128e+07   1.68459e+06     17753     68879    131261     12168       803
   0.00097   4.51215e+07   9.55674e+06   1.42367e+06     14980     58916    111265     10197       628
   0.00099   3.65551e+07   7.77563e+06   1.15607e+06     12325     48307     90862      8499       479
   0.00101   3.05093e+07   6.49597e+06        965463     10072     39406     75287      6967       384
   0.00103   2.54108e+07   5.42113e+06        806716      8451     33146     62779      5835       339
   0.00105   2.00135e+07   4.24451e+06        632363      6639     25853     49149      4505       241
   0.00107   1.57907e+07   3.35333e+06        499926      5297     20644     38876      3550       198
   0.00109   1.26647e+07   2.68937e+06        400526      4245     16483     31359      2779       169
   0.00111   9.69643e+06   2.05473e+06        306186      3246     12455     23759      2182       126
   0.00113   7.66514e+06   1.63908e+06        243255      2666      9768     18931      1772        87
   0.00115   5.64183e+06   1.19791e+06        178157      1893      7208     13756      1219        64
   0.00117   4.11848e+06        872696        130494      1395      5274      9978       924        52
   0.00119   3.20024e+06        676997        101409      1073      4080      7791       670        42
   0.00121   2.47617e+06        529800         78747       894      3252      6119       606        25
   0.00123   1.61072e+06        345870         50751       482      2017      3923       381        19
   0.00125    1.0367e+06        221127         32593       331      1393      2515       237        16
   0.00127        776642        167287         24617       269      1043      1906       189        13
   0.00129        558477        119046         17995       180       719      1381       138         3
   0.00131        330230         70693         10515       129       424       820        72         3
   0.00133        212363         44070          6795        69       303       520        44         3
   0.00135        130602         27569          4054        45       179       308        40         2
   0.00137         78397         16474          2420        25       120       201        16         0
   0.00139         57243         12210          1879        25       100       146         8         0
   0.00141         35020          7659          1117        18        45        98         6         0
   0.00143         13053          2327           382         4        26        30         1         0
   0.00145          9352          1988           287         2        11        20         3         0
   0.00147           350           105            16         1         6         4         1         0
   0.00149          2304           467            72         2         1         4         0         0
   0.00151         13164          2792           414         1        10        32         3         0
   0.00153          8429          1614           251         2         4        12         1         0
   0.00155          4427          1180           144         5         6        16         1         0
   0.00157             0             0             0         0         0         0         0         0
   0.00159             0             0             0         0         0         0         0         0
   0.00161             0             0             0         0         0         0         0         0
   0.00163             0             0             0         0         0         0         0         0
   0.00165             0             0             0         0         0         0         0         0
   0.00167             0             0             0         0         0         0         0         0
   0.00169             0             0             0         0         0         0         0         0
   0.00171             0             0             0         0         0         0         0         0
   0.00173             0             0             0         0         0         0         0         0
   0.00175             0             0             0         0         0         0         0         0
   0.00177             0             0             0         0         0         0         0         0
   0.00179             0             0             0         0         0         0         0         0
   0.00181             0             0             0         0         0         0         0         0
   0.00183             0             0             0         0         0         0         0         0
   0.00185             0             0             0         0         0         0         0         0
   0.00187             0             0             0         0         0         0         0         0
   0.00189             0             0             0         0         0         0         0         0
   0.00191             0             0             0         0         0         0         0         0
   0.00193             0             0             0         0         0         0         0         0
   0.00195             0             0             0         0         0         0         0         0
   0.00197             0             0             0         0         0         0         0         0
   0.00199             0             0             0         0         0         0         0         0
   0.00201             0             0             0         0         0         0         0         0


Water gas:
     x(mm)       Elastic      ExcitRot     ExcitVibr ExcitElectr DisNeutr    Ioniz    Attach     Auger
       0.1   5.11773e+07   1.10768e+07   1.61611e+06     17092     69912    145140     11985      1262
       0.3   6.32746e+07   1.34594e+07   2.00164e+06     19592     78336    158467     14462      1179
       0.5   6.43062e+07    1.3684e+07   2.03185e+06     19962     79847    160264     14685      1270
       0.7   6.56786e+07   1.39371e+07   2.07817e+06     20278     81328    164242     14845      1191
       0.9   6.66271e+07   1.41644e+07   2.10871e+06     20603     82585    166758     15159      1286
       1.1   6.84201e+07   1.45334e+07   2.16493e+06     21192     84408    171234     15482      1328
       1.3   6.93312e+07   1.46856e+07   2.19128e+06     21656     86011    172791     15535      1302
       1.5   7.08745e+07   1.50227e+07   2.23959e+06     22113     88001    176941     15952      1394
       1.7   7.24755e+07    1.5379e+07   2.29127e+06     22328     89864    180530     16473      1409
       1.9   7.38494e+07   1.56629e+07   2.33592e+06     22735     91613    184420     16480      1420
       2.1   7.57542e+07   1.60877e+07   2.39265e+06     23506     93890    188716     17292      1459
       2.3   7.68849e+07   1.63058e+07   2.43325e+06     23802     95469    192077     17284      1510
       2.5   7.86562e+07   1.67144e+07   2.49006e+06     24354     97719    196345     18047      1493
       2.7   8.10764e+07   1.72456e+07   2.56515e+06     25014    101354    202460     18399      1563
       2.9   8.28898e+07    1.7581e+07   2.62085e+06     25676    103389    207193     18799      1516
       3.1   8.50217e+07   1.80272e+07   2.68555e+06     26579    105653    212362     19405      1640
       3.3   8.75444e+07   1.85889e+07   2.77234e+06     26850    108802    217977     19956      1642
       3.5   8.96435e+07   1.90332e+07   2.84109e+06     27618    111576    224191     20420      1626
       3.7   9.15295e+07   1.94393e+07   2.89533e+06     28534    114934    228677     20782      1725
       3.9   9.56553e+07   2.03274e+07     3.026e+06     29838    120043    238612     21318      1803
       4.1    9.7563e+07   2.07281e+07   3.08959e+06     30367    122308    243423     22363      1847
       4.3   1.01641e+08   2.15859e+07   3.21202e+06     31449    127056    252546     22938      1950
       4.5   1.04014e+08   2.21069e+07   3.29544e+06     32503    131634    260458     23683      2003
       4.7   1.07985e+08   2.29326e+07    3.4159e+06     33994    137388    269037     24534      2049
       4.9   1.10071e+08   2.33377e+07   3.47859e+06     34394    138843    274404     24915      2023
       5.1   1.14396e+08   2.42815e+07   3.61608e+06     35969    144801    284945     25939      2194
       5.3   1.16963e+08   2.48247e+07   3.69651e+06     36651    148340    292056     26399      2127
       5.5   1.21166e+08    2.5726e+07   3.83373e+06     38096    153851    302027     27461      2235
       5.7   1.23855e+08   2.62762e+07   3.91755e+06     39192    159103    308729     28327      2303
       5.9   1.28158e+08   2.72236e+07   4.05603e+06     40785    163517    319395     29160      2429
       6.1   1.30988e+08   2.78282e+07    4.1411e+06     41286    167473    326720     29832      2317
       6.3   1.34355e+08   2.85057e+07   4.24788e+06     42600    173068    334921     30574      2465
       6.5   1.38126e+08    2.9287e+07   4.36857e+06     43443    178234    343123     30909      2561
       6.7     1.411e+08    3.0002e+07   4.46314e+06     44715    181978    351828     32020      2570
       6.9   1.41647e+08   3.00352e+07   4.47633e+06     44910    182996    351573     31877      2525
       7.1   1.45383e+08   3.09257e+07   4.60121e+06     46157    188106    362264     33062      2616
       7.3   1.47023e+08   3.11903e+07   4.64642e+06     46675    190678    366039     33141      2669
       7.5   1.48428e+08   3.15363e+07   4.69815e+06     47550    192582    369888     33652      2589
       7.7   1.49678e+08   3.17881e+07    4.7355e+06     47675    193730    372171     33963      2554
       7.9    1.4995e+08   3.18168e+07   4.74349e+06     47750    194506    372653     33611      2644
       8.1   1.50036e+08   3.19073e+07   4.74754e+06     48044    195244    373187     34133      2597
       8.3    1.4831e+08   3.15166e+07   4.69335e+06     47556    193101    368816     33962      2558
       8.5   1.48756e+08    3.1609e+07   4.70361e+06     47953    195542    371318     34054      2697
       8.7   1.46552e+08   3.11576e+07   4.63978e+06     47303    190923    364272     33702      2447
       8.9   1.44529e+08   3.07067e+07   4.57461e+06     46614    187395    358721     32465      2441
       9.1   1.41345e+08   3.00681e+07   4.47072e+06     45222    183549    350983     32243      2316
       9.3   1.39327e+08   2.96382e+07   4.40878e+06     45074    181390    346228     31775      2318
       9.5    1.3683e+08    2.9062e+07   4.32675e+06     44478    178556    339175     31107      2300
       9.7   1.32302e+08    2.8124e+07   4.18587e+06     42923    172328    328996     30321      2186
       9.9    1.2705e+08   2.69424e+07   4.01602e+06     40970    165174    314506     28660      2044
      10.1   1.22735e+08   2.60507e+07   3.88262e+06     39727    159971    304307     27694      1991
      10.3   1.18492e+08   2.51761e+07   3.74862e+06     38708    154132    293277     26665      1861
      10.5   1.11978e+08   2.37839e+07   3.54432e+06     36548    145901    277865     25460      1803
      10.7   1.06635e+08   2.26639e+07   3.37091e+06     34714    138674    264407     24040      1670
      10.9    1.0071e+08   2.13883e+07   3.18474e+06     32984    131271    249612     22926      1599
      11.1   9.60409e+07    2.0411e+07   3.03725e+06     31280    124732    237280     21694      1510
      11.3   8.99739e+07   1.91166e+07    2.8468e+06     29621    117551    223363     20269      1420
      11.5   8.28059e+07   1.75708e+07    2.6193e+06     27187    107783    204638     18678      1267
      11.7   7.68515e+07   1.63035e+07    2.4298e+06     25459    100598    190016     17592      1183
      11.9   7.15134e+07   1.51752e+07    2.2614e+06     23491     93260    177275     16335      1114
      12.1   6.60256e+07    1.4045e+07    2.0857e+06     21694     86621    163603     15204       968
      12.3   6.07508e+07   1.28944e+07   1.91903e+06     20161     78819    149907     13748       928
      12.5   5.43792e+07   1.15594e+07   1.71919e+06     18062     70633    133861     12342       773
      12.7     4.882e+07   1.03746e+07   1.54315e+06     16294     64006    120708     11032       665
      12.9   4.40603e+07   9.35885e+06   1.39165e+06     14552     57419    108422     10111       643
      13.1   3.91266e+07   8.32254e+06   1.23966e+06     13111     50773     96499      8992       583
      13.3   3.54501e+07   7.51043e+06   1.11906e+06     11783     45905     87284      7936       534
      13.5   3.09522e+07   6.57292e+06        977312     10244     40359     76529      7071       409
      13.7   2.62805e+07   5.57929e+06        831035      8845     34721     65202      6071       354
      13.9    2.3227e+07   4.95531e+06        734854      7652     30375     57705      5464       289
      14.1   2.03636e+07   4.34117e+06        645977      6947     26382     50325      4544       263
      14.3     1.772e+07   3.77303e+06        561793      5798     23066     43558      4130       237
      14.5   1.47997e+07   3.13901e+06        467366      4950     19149     36497      3267       174
      14.7   1.23916e+07   2.63232e+06        392440      4113     16087     30420      2810       152
      14.9   1.06918e+07   2.26952e+06        338012      3627     14039     26343      2394       141
      15.1   8.98057e+06   1.90596e+06        284244      2980     11574     22043      1989       119
      15.3   7.39345e+06   1.56498e+06        233276      2430      9601     18159      1627        91
      15.5   6.28802e+06   1.34143e+06        199098      2144      7959     15567      1454        81
      15.7   5.15087e+06   1.09948e+06        163333      1810      6559     12676      1174        56
      15.9   4.18733e+06        888845        132355      1389      5368     10206       903        46
      16.1   3.17056e+06        670442        100508      1065      3974      7768       703        50
      16.3   2.73674e+06        580514         86384       929      3535      6558       591        29
      16.5   2.23376e+06        474400         71050       757      2901      5475       482        29
      16.7   1.91128e+06        410606         60802       729      2501      4728       476        19
      16.9   1.43562e+06        305186         45328       441      1826      3560       355        16
      17.1        983061        211470         30963       283      1273      2346       216        13
      17.3        726311        155602         22878       228       968      1768       159        11
      17.5        615931        132165         19504       219       798      1496       148         7
      17.7        502144        106862         16037       159       708      1228       129         8
      17.9        366041         78921         11794       127       460       927        92         2
