 #x(mm),       EdepTotal ,       E2_proton 
-0.25,10.8572,179.999
0.25,14323.5,179.943
0.75,40534,179.486
1.25,63540.3,179.244
1.75,83498.9,178.999
2.25,101425,178.756
2.75,116490,178.513
3.25,129793,178.267
3.75,141835,178.024
4.25,151942,177.788
4.75,160133,177.543
5.25,168691,177.293
5.75,175514,177.051
6.25,181660,176.809
6.75,187078,176.567
7.25,193032,176.319
7.75,196925,176.076
8.25,199124,175.832
8.75,204779,175.586
9.25,205376,175.341
9.75,209911,175.094
10.25,210920,174.842
10.75,212209,174.596
11.25,214617,174.355
11.75,216057,174.109
12.25,217760,173.86
12.75,219015,173.616
13.25,221263,173.368
13.75,221472,173.12
14.25,221800,172.87
14.75,222901,172.624
15.25,223348,172.378
15.75,224473,172.126
16.25,226214,171.88
16.75,225283,171.63
17.25,225138,171.382
17.75,226785,171.133
18.25,227633,170.881
18.75,228230,170.629
19.25,227818,170.382
19.75,228263,170.125
20.25,228592,169.875
20.75,229592,169.625
21.25,231237,169.379
21.75,230420,169.125
22.25,229906,168.871
22.75,231653,168.62
23.25,231973,168.372
23.75,232184,168.117
24.25,232056,167.865
24.75,231603,167.613
25.25,233002,167.357
25.75,233847,167.102
26.25,232334,166.85
26.75,231869,166.592
27.25,233385,166.34
27.75,233926,166.086
28.25,234911,165.831
28.75,234798,165.576
29.25,234082,165.321
29.75,236016,165.068
30.25,234544,164.808
30.75,236487,164.552
31.25,234712,164.286
31.75,236383,164.036
32.25,235900,163.748
32.75,234955,163.523
33.25,234251,163.266
33.75,237861,163.013
34.25,236707,162.754
34.75,239250,162.494
35.25,238297,162.234
35.75,236969,161.976
36.25,239244,161.715
36.75,241045,161.458
37.25,239534,161.187
37.75,240046,160.927
38.25,240049,160.673
38.75,239976,160.413
39.25,238432,160.15
39.75,241164,159.887
40.25,240145,159.622
40.75,241895,159.368
41.25,243264,159.104
41.75,242743,158.842
42.25,242232,158.574
42.75,242682,158.311
43.25,242691,158.05
43.75,241959,157.785
44.25,244710,157.52
44.75,242704,157.258
45.25,243867,156.989
45.75,244465,156.725
46.25,243161,156.462
46.75,244914,156.195
47.25,246937,155.928
47.75,245908,155.659
48.25,245732,155.386
48.75,246908,155.122
49.25,246480,154.854
49.75,246611,154.588
50.25,247835,154.319
50.75,247480,154.044
51.25,247993,153.774
51.75,249369,153.493
52.25,248152,153.221
52.75,249618,152.965
53.25,251228,152.683
53.75,250547,152.426
54.25,249745,152.153
54.75,252009,151.878
55.25,249657,151.61
55.75,251797,151.335
56.25,251992,151.061
56.75,250956,150.792
57.25,251939,150.517
57.75,252969,150.243
58.25,253686,149.947
58.75,253335,149.689
59.25,256094,149.417
59.75,254103,149.143
60.25,255011,148.865
60.75,254670,148.59
61.25,255688,148.316
61.75,255744,148.034
62.25,256344,147.756
62.75,255575,147.48
63.25,256882,147.201
63.75,256839,146.923
64.25,256993,146.644
64.75,259077,146.359
65.25,259070,146.08
65.75,258850,145.802
66.25,260059,145.521
66.75,260637,145.238
67.25,259712,144.958
67.75,260316,144.676
68.25,259479,144.396
68.75,260744,144.115
69.25,260339,143.826
69.75,260200,143.549
70.25,261841,143.263
70.75,263618,142.98
71.25,263288,142.684
71.75,263014,142.412
72.25,263447,142.124
72.75,262587,141.842
73.25,263316,141.56
73.75,265856,141.269
74.25,265662,140.984
74.75,266138,140.695
75.25,266683,140.41
75.75,265447,140.117
76.25,266387,139.832
76.75,268885,139.541
77.25,267475,139.257
77.75,266761,138.964
78.25,267938,138.674
78.75,266652,138.387
79.25,267804,138.098
79.75,271150,137.81
80.25,269169,137.514
80.75,271654,137.219
81.25,270299,136.93
81.75,271874,136.64
82.25,270856,136.347
82.75,271981,136.052
83.25,271978,135.758
83.75,270659,135.462
84.25,270798,135.171
84.75,273574,134.869
85.25,274595,134.576
85.75,274084,134.279
86.25,273234,133.985
86.75,275030,133.699
87.25,276195,133.393
87.75,275058,133.101
88.25,274455,132.803
88.75,275842,132.507
89.25,275813,132.209
89.75,276676,131.908
90.25,276828,131.61
90.75,280353,131.308
91.25,278341,131.009
91.75,276773,130.707
92.25,279411,130.402
92.75,280725,130.104
93.25,280606,129.805
93.75,279615,129.506
94.25,280360,129.202
94.75,278786,128.908
95.25,281894,128.6
95.75,282513,128.295
96.25,281497,127.989
96.75,281167,127.684
97.25,282986,127.384
97.75,283496,127.073
98.25,283792,126.769
98.75,283102,126.464
99.25,285170,126.157
99.75,285327,125.848
100.25,287169,125.541
100.75,286800,125.233
101.25,286707,124.925
101.75,287085,124.613
102.25,288002,124.307
102.75,286583,123.997
103.25,290054,123.682
103.75,289150,123.379
104.25,289225,123.063
104.75,288545,122.748
105.25,289120,122.427
105.75,292236,122.119
106.25,291852,121.798
106.75,293971,121.487
107.25,291520,121.174
107.75,292661,120.845
108.25,294272,120.534
108.75,296305,120.222
109.25,294467,119.9
109.75,297774,119.581
110.25,297101,119.263
110.75,294893,118.949
111.25,295947,118.621
111.75,298985,118.3
112.25,298727,117.984
112.75,299750,117.652
113.25,300617,117.338
113.75,302641,117.012
114.25,301137,116.688
114.75,300511,116.354
115.25,304988,116.035
115.75,302931,115.711
116.25,303597,115.384
116.75,304991,115.045
117.25,306313,114.719
117.75,306762,114.398
118.25,307097,114.069
118.75,306556,113.719
119.25,308875,113.376
119.75,310421,113.059
120.25,310443,112.741
120.75,310969,112.383
121.25,311525,112.06
121.75,313049,111.726
122.25,312217,111.385
122.75,314061,111.045
123.25,313900,110.704
123.75,316882,110.374
124.25,316902,110.033
124.75,318528,109.692
125.25,318271,109.349
125.75,318087,109.002
126.25,320223,108.652
126.75,321911,108.303
127.25,323623,107.966
127.75,323053,107.611
128.25,324721,107.269
128.75,323604,106.926
129.25,324771,106.568
129.75,326920,106.221
130.25,327025,105.867
130.75,328620,105.499
131.25,330225,105.158
131.75,331017,104.788
132.25,331724,104.436
132.75,331956,104.087
133.25,333497,103.73
133.75,334659,103.369
134.25,335232,103.017
134.75,335659,102.657
135.25,336650,102.295
135.75,338150,101.926
136.25,340169,101.565
136.75,339931,101.207
137.25,339411,100.849
137.75,343389,100.472
138.25,341711,100.105
138.75,339651,99.7404
139.25,344860,99.3648
139.75,347187,98.9994
140.25,347914,98.6237
140.75,348905,98.2569
141.25,349005,97.8745
141.75,350920,97.4959
142.25,351914,97.1209
142.75,353133,96.7489
143.25,352344,96.3704
143.75,353973,95.9952
144.25,351258,95.6029
144.75,356571,95.2436
145.25,355082,94.8576
145.75,358289,94.4693
146.25,358649,94.0858
146.75,360543,93.7076
147.25,359834,93.3337
147.75,362912,92.9321
148.25,364010,92.5459
148.75,364615,92.1568
149.25,366536,91.7563
149.75,369234,91.359
150.25,369266,90.9794
150.75,371114,90.582
151.25,370559,90.1728
151.75,373090,89.7841
152.25,373928,89.3895
152.75,376641,88.9945
153.25,374375,88.5886
153.75,379131,88.1905
154.25,380511,87.783
154.75,379740,87.3796
155.25,382613,86.9631
155.75,384827,86.5568
156.25,384654,86.1516
156.75,386594,85.7445
157.25,389090,85.3246
157.75,390360,84.902
158.25,394270,84.4964
158.75,392945,84.0716
159.25,395768,83.6563
159.75,397840,83.2359
160.25,397193,82.8136
160.75,400517,82.3785
161.25,402955,81.9538
161.75,405896,81.5294
162.25,408394,81.0971
162.75,407053,80.6741
163.25,410546,80.2348
163.75,412671,79.7985
164.25,413029,79.3502
164.75,416296,78.9119
165.25,418312,78.4719
165.75,421251,78.028
166.25,424679,77.5847
166.75,423443,77.1564
167.25,427614,76.6956
167.75,432674,76.2426
168.25,429983,75.8029
168.75,433541,75.3389
169.25,436946,74.8697
169.75,439236,74.4209
170.25,443777,73.9596
170.75,445947,73.4976
171.25,447423,73.0405
171.75,448384,72.5686
172.25,449768,72.0848
172.75,451557,71.6339
173.25,453667,71.1631
173.75,456656,70.692
174.25,458637,70.2124
174.75,463243,69.7379
175.25,462109,69.2426
175.75,466014,68.7584
176.25,467133,68.2716
176.75,472199,67.7778
177.25,475272,67.291
177.75,474534,66.8033
178.25,479441,66.3034
178.75,479103,65.7991
179.25,488110,65.2948
179.75,488623,64.7946
180.25,491784,64.2838
180.75,495194,63.776
181.25,497684,63.2568
181.75,504607,62.7261
182.25,505741,62.2067
182.75,512985,61.6675
183.25,515270,61.1465
183.75,516681,60.6206
184.25,522275,60.0754
184.75,528927,59.5289
185.25,533053,58.9831
185.75,538469,58.4259
186.25,539454,57.8745
186.75,546703,57.3155
187.25,552683,56.7394
187.75,561556,56.1857
188.25,565537,55.5917
188.75,570714,55.0248
189.25,574402,54.4475
189.75,582922,53.8461
190.25,588331,53.2745
190.75,597045,52.6875
191.25,599191,52.0598
191.75,606290,51.4927
192.25,610823,50.8622
192.75,619305,50.2448
193.25,625334,49.6252
193.75,635296,48.9872
194.25,639802,48.3571
194.75,646953,47.7042
195.25,656711,47.0379
195.75,663860,46.3713
196.25,674499,45.6728
196.75,682055,44.967
197.25,695634,44.258
197.75,709170,43.545
198.25,717667,42.8068
198.75,732714,42.059
199.25,745648,41.3
199.75,762631,40.5212
200.25,776479,39.7101
200.75,787715,38.8782
201.25,807932,38.0383
201.75,824466,37.1644
202.25,845970,36.2795
202.75,861592,35.3888
203.25,882589,34.462
203.75,903428,33.5331
204.25,927874,32.5455
204.75,951354,31.5815
205.25,978573,30.5539
205.75,1001930,29.4741
206.25,1035140,28.3451
206.75,1062990,27.1409
207.25,1102160,25.9037
207.75,1144210,24.5484
208.25,1190200,23.123
208.75,1240240,21.5842
209.25,1300420,20.014
209.75,1370130,18.4301
210.25,1443840,16.7965
210.75,1522810,15.2483
211.25,1605380,13.79
211.75,1681950,12.452
212.25,1746590,11.2568
212.75,1786150,10.201
213.25,1797310,9.25109
213.75,1767260,8.43976
214.25,1690030,7.73574
214.75,1566940,7.10864
215.25,1405810,6.58211
215.75,1213350,6.10061
216.25,1004970,5.68419
216.75,795407,5.32506
217.25,603039,4.99338
217.75,435356,4.69026
218.25,297792,4.42512
218.75,192211,4.19078
219.25,118061,3.98909
219.75,68434.3,3.78281
220.25,37516,3.62976
220.75,19449.6,3.42458
221.25,9272.75,3.31463
221.75,4314.41,3.24604
222.25,1926.11,2.97231
222.75,745.132,2.67297
223.25,236.635,2.83116
223.75,95.7762,2.29001
224.25,17.0921,2.19948
224.75,2.90691,6.87937
225.25,6.21716,2.28327
225.75,0,0
226.25,0,0
226.75,0,0
227.25,0,0
227.75,0,0
228.25,0,0
228.75,0,0
229.25,0,0
229.75,0,0
230.25,0,0
230.75,0,0
231.25,0,0
231.75,0,0
232.25,0,0
232.75,0,0
233.25,0,0
233.75,0,0
234.25,0,0
234.75,0,0
235.25,0,0
235.75,0,0
236.25,0,0
236.75,0,0
237.25,0,0
237.75,0,0
238.25,0,0
238.75,0,0
239.25,0,0
239.75,0,0
240.25,0,0
240.75,0,0
241.25,0,0
241.75,0,0
242.25,0,0
242.75,0,0
243.25,0,0
243.75,0,0
244.25,0,0
244.75,0,0
245.25,0,0
245.75,0,0
246.25,0,0
246.75,0,0
247.25,0,0
247.75,0,0
248.25,0,0
248.75,0,0
249.25,0,0
249.75,0,0
250.25,0,0
