#  proton   ***********  integral ionization CS by protons (in \AA^2)    ***********
#  energy   
#  E_eV         total        form_H2O+      form_H+        form_OH+      form_O+    
  1.26E+01   1.000000E-05
  1.50E+01   1.900000E-03
  2.00E+01   1.366000E-02
  3.00E+01   3.225000E-02
  4.00E+01   4.018000E-02
  5.00E+01   4.765000E-02
  7.00E+01   6.161000E-02
  1.00E+02   8.159692E-02
  1.50E+02   1.108678E-01
  2.00E+02   1.386205E-01
  3.00E+02   1.885250E-01
  4.00E+02   2.313362E-01
  5.00E+02   2.780355E-01
  7.00E+02   3.540736E-01
  1.00E+03   4.637758E-01
  1.50E+03   6.187631E-01
  2.00E+03   7.731087E-01
  3.00E+03   1.052428E+00
  4.00E+03   1.314904E+00
  5.00E+03   1.514297E+00
  7.00E+03   1.948910E+00
  1.00E+04   2.538835E+00   1.400642E+00   8.050416E-01   4.206612E-01   1.124900E-01
  1.50E+04   3.476678E+00   1.785290E+00   1.006000E+00   5.223201E-01   1.630663E-01
  2.00E+04   4.201236E+00   2.156654E+00   1.206960E+00   6.239790E-01   2.136427E-01
  3.00E+04   5.255576E+00   2.707546E+00   1.469537E+00   7.993048E-01   2.791875E-01
  4.00E+04   5.643118E+00   2.913227E+00   1.494372E+00   9.556694E-01   2.798496E-01
  5.00E+04   5.851523E+00   2.992241E+00   1.523039E+00   1.019863E+00   3.163805E-01
  7.00E+04   5.744328E+00   2.966459E+00   1.459937E+00   1.042560E+00   2.753711E-01
  1.00E+05   5.310980E+00   2.713729E+00   1.263556E+00   1.071953E+00   2.617416E-01
  1.50E+05   4.759455E+00   2.367973E+00   1.085496E+00   1.064003E+00   2.419820E-01
  2.00E+05   4.123153E+00   2.111536E+00   8.428586E-01   9.762477E-01   1.925100E-01
  3.00E+05   3.041921E+00   1.596077E+00   5.703587E-01   7.631351E-01   1.123500E-01
  4.00E+05   2.445910E+00   1.291857E+00   4.645438E-01   6.068586E-01   8.265000E-02
  5.00E+05   2.031598E+00   1.164095E+00   3.310000E-01   4.722129E-01   6.429000E-02
  7.00E+05   1.497668E+00   9.630160E-01   2.310000E-01   2.592425E-01   4.441000E-02
  1.00E+06   1.210637E+00   8.047475E-01   1.620000E-01   2.100000E-01   3.389000E-02
  1.50E+06   9.578893E-01   6.305793E-01   1.400000E-01   1.600000E-01   2.731000E-02
  2.00E+06   7.796908E-01   5.234508E-01   1.050000E-01   1.300000E-01   2.124000E-02
  3.00E+06   5.381853E-01   3.689853E-01   8.400000E-02   7.900000E-02   6.200000E-03
  4.00E+06   4.399877E-01   2.726226E-01   4.600000E-02   5.300000E-02               
  5.00E+06   3.552552E-01
  7.00E+06   2.724907E-01
  1.00E+07   1.923484E-01
