Water
     x(um)   Elastic       ExcitRot      ExcitVibr    ExcitElectr DisNeutr  Ioniz       Attach    Auger

      0.01   6.76978e+07     1.484e+07   2.13848e+06     22002     91644    190423     15968       774
      0.03    7.8349e+07   1.69424e+07   2.47316e+06     24209     97965    200686     18189       792
      0.05   8.00681e+07   1.73265e+07   2.52822e+06     24753    100076    205470     18601       793
      0.07    8.1655e+07   1.76515e+07   2.57567e+06     25670    102192    209216     19007       845
      0.09   8.37303e+07   1.80882e+07   2.64379e+06     25700    104257    214209     19245       818
      0.11   8.56502e+07    1.8546e+07    2.7037e+06     26030    107052    219107     19910       864
      0.13    8.8403e+07   1.91194e+07   2.79029e+06     27081    110815    227049     20202       901
      0.15    9.1346e+07   1.97586e+07   2.88517e+06     28034    113489    233852     20850       926
      0.17   9.40445e+07   2.03293e+07   2.96918e+06     29353    117835    240727     21687       952
      0.19   9.69061e+07   2.09987e+07   3.06119e+06     29849    121279    249444     22523       956
      0.21   9.92708e+07   2.14558e+07   3.13125e+06     30413    123740    253947     22953       972
      0.23   1.02684e+08   2.22189e+07   3.24399e+06     31202    129596    262374     23594       991
      0.25   1.06486e+08   2.30446e+07   3.35834e+06     32708    133841    272791     24424      1071
      0.27   1.10053e+08   2.37905e+07    3.4733e+06     34165    139015    282349     25391      1107
      0.29   1.13577e+08   2.45878e+07    3.5857e+06     35308    144043    291438     26614      1114
      0.31   1.18213e+08   2.55957e+07   3.73446e+06     36818    150340    302723     27214      1149
      0.33   1.22998e+08    2.6625e+07   3.88553e+06     38106    156198    314917     28314      1175
      0.35   1.28055e+08   2.76864e+07   4.03987e+06     39882    163085    327872     29631      1290
      0.37   1.33172e+08   2.88138e+07   4.20506e+06     41632    170453    340673     30488      1340
      0.39   1.39025e+08   3.01191e+07   4.38589e+06     43297    177979    356065     32470      1367
      0.41   1.43594e+08   3.10731e+07   4.53522e+06     44573    184871    368361     32944      1429
      0.43   1.47623e+08   3.19591e+07   4.65801e+06     45749    190638    378286     34292      1420
      0.45   1.52947e+08   3.31055e+07    4.8265e+06     47777    198482    391442     35537      1504
      0.47   1.60564e+08   3.47304e+07   5.07116e+06     50135    207993    409613     36826      1607
      0.49   1.64646e+08   3.56902e+07   5.19662e+06     52348    214984    421625     38060      1616
      0.51    1.6852e+08   3.64749e+07   5.32285e+06     52351    220128    431114     38959      1552
      0.53   1.74822e+08    3.7827e+07   5.51973e+06     55256    229713    448225     40541      1685
      0.55   1.79066e+08   3.87406e+07   5.65206e+06     56838    235405    457805     41339      1713
      0.57   1.83558e+08   3.97071e+07   5.79538e+06     58322    241817    469809     42298      1720
      0.59   1.87093e+08    4.0495e+07   5.90673e+06     59288    245909    477693     42753      1725
      0.61   1.87911e+08   4.06835e+07    5.9345e+06     60082    248041    480058     43247      1726
      0.63   1.90156e+08   4.11499e+07   6.00295e+06     60092    252077    486005     44339      1722
      0.65   1.90653e+08   4.12963e+07   6.01535e+06     60916    252175    487623     44542      1688
      0.67   1.91212e+08   4.14104e+07    6.0371e+06     60852    253940    488298     44323      1752
      0.69   1.89852e+08   4.10813e+07   5.99119e+06     60830    251110    483089     43551      1681
      0.71   1.88776e+08   4.08738e+07   5.96144e+06     60805    250357    481434     43459      1799
      0.73   1.85731e+08   4.02134e+07    5.8632e+06     59968    246680    474552     42865      1526
      0.75   1.80232e+08   3.90144e+07   5.68125e+06     58303    239202    458394     41460      1585
      0.77   1.76012e+08   3.80937e+07   5.55342e+06     57280    233744    448505     40788      1497
      0.79   1.69357e+08   3.66679e+07   5.34374e+06     55066    226251    432298     39206      1427
      0.81   1.61683e+08   3.50144e+07   5.10156e+06     52705    214934    410727     37454      1312
      0.83   1.54233e+08   3.33639e+07   4.86658e+06     50577    204664    393365     35679      1289
      0.85   1.43818e+08   3.11289e+07    4.5446e+06     46970    191314    365693     33182      1214
      0.87   1.34898e+08   2.92088e+07   4.25975e+06     43960    178627    342966     31166      1108
      0.89   1.24204e+08   2.68856e+07   3.92369e+06     40724    165048    315395     28635       961
      0.91   1.12404e+08   2.43132e+07   3.54622e+06     37147    148752    285579     26276       841
      0.93   1.02743e+08   2.22468e+07   3.24586e+06     34132    136591    261667     23875       772
      0.95   9.15035e+07   1.97879e+07   2.88708e+06     30219    120708    232452     21304       664
      0.97   8.07643e+07    1.7488e+07   2.54901e+06     26923    107317    205329     18982       622
      0.99   6.99678e+07   1.51744e+07   2.20994e+06     23409     92623    177351     16320       516
      1.01   6.02678e+07   1.30366e+07   1.90061e+06     20161     79870    152872     14039       426
      1.03   5.23587e+07    1.1326e+07   1.65322e+06     17653     69119    131870     11889       352
      1.05   4.38476e+07   9.52462e+06   1.38563e+06     14709     57878    111570     10426       285
      1.07   3.57021e+07   7.74846e+06     1.126e+06     11965     46964     90194      8327       238
      1.09   2.93951e+07   6.35204e+06        925996     10107     39062     74089      6604       192
      1.11   2.36564e+07   5.12556e+06        745401      8075     31389     59920      5435       149
      1.13   1.86939e+07   4.05412e+06        590782      6177     24875     47029      4350       108
      1.15   1.41995e+07   3.07433e+06        450119      4695     18904     35750      3192        79
      1.17    1.1066e+07   2.39493e+06        349164      3812     14907     28102      2609        78
      1.19    8.1252e+06   1.75805e+06        256573      2880     10792     20421      1944        44
      1.21   6.14453e+06   1.32617e+06        193734      2145      8170     15701      1408        32
      1.23   4.39217e+06        965417        139901      1509      5917     11114      1037        27
      1.25   3.27244e+06        713569        103482      1093      4410      8363       785        19
      1.27   2.24879e+06        485492         70974       715      2961      5595       507        10
      1.29   1.70899e+06        373145         53946       596      2325      4391       422         7
      1.31        966542        212509         30857       350      1342      2519       248         4
      1.33        706948        151998         22254       237       930      1812       165         4
      1.35        512001        110573         16014       165       689      1250       112         4
      1.37        355944         76928         11289       121       493       904        80         2
      1.39        240275         50577          7609        78       295       594        46         1
      1.41        116785         26563          3824        30       136       296        28         0
      1.43         63586         13724          2014        19        75       149        14         0
      1.45         30768          6702          1006        13        35        77        15         0
      1.47         43425          8945          1429        12        66       119         8         0
      1.49         20691          4738           651         4        33        51         6         0
      1.51          1421           271            43         0         3         3         0         0
      1.53             0             0             0         0         0         0         0         0
      1.55             0             0             0         0         0         0         0         0
      1.57             0             0             0         0         0         0         0         0
      1.59             0             0             0         0         0         0         0         0
      1.61             0             0             0         0         0         0         0         0
      1.63             0             0             0         0         0         0         0         0
      1.65             0             0             0         0         0         0         0         0
      1.67             0             0             0         0         0         0         0         0
      1.69             0             0             0         0         0         0         0         0
      1.71             0             0             0         0         0         0         0         0
      1.73             0             0             0         0         0         0         0         0
      1.75             0             0             0         0         0         0         0         0
      1.77             0             0             0         0         0         0         0         0
      1.79             0             0             0         0         0         0         0         0
      1.81             0             0             0         0         0         0         0         0
      1.83             0             0             0         0         0         0         0         0
      1.85             0             0             0         0         0         0         0         0
      1.87             0             0             0         0         0         0         0         0
      1.89             0             0             0         0         0         0         0         0
      1.91             0             0             0         0         0         0         0         0
      1.93             0             0             0         0         0         0         0         0
      1.95             0             0             0         0         0         0         0         0
      1.97             0             0             0         0         0         0         0         0
      1.99             0             0             0         0         0         0         0         0
      2.01             0             0             0         0         0         0         0         0
