Pyrimidine
     x(um)   Elastic       ExcitRot      ExcitVibr    ExcitElectr DisNeutr  Ioniz       Attach    Auger

      0.01   1.56579e+07   3.29533e+07        754321     85579     48592    203256      1466        36
      0.03   1.72861e+07    3.6714e+07        837519     91266     49800    209652      1608        55
      0.05   1.75526e+07   3.72541e+07        850326     92355     49870    212872      1612        48
      0.07   1.77234e+07   3.76351e+07        857505     93685     50471    214575      1660        51
      0.09   1.79682e+07   3.81315e+07        870227     94629     51915    217991      1727        53
      0.11   1.81602e+07   3.85384e+07        880517     95887     52163    220644      1804        59
      0.13   1.84359e+07    3.9174e+07        892274     97103     53178    223953      1676        57
      0.15   1.86957e+07   3.97379e+07        903815     98106     53862    227124      1682        47
      0.17   1.90642e+07   4.04485e+07        922382     99975     54757    230905      1841        58
      0.19   1.93534e+07   4.10334e+07        938363    101829     56001    234447      1833        53
      0.21   1.95234e+07   4.14548e+07        944906    102576     56291    236680      1848        51
      0.23   1.99859e+07   4.23892e+07        967712    105180     57800    241822      1814        48
      0.25   2.03181e+07   4.30902e+07        983585    107560     58883    246146      1885        70
      0.27   2.06819e+07   4.39182e+07        999879    108731     59660    251155      1971        59
      0.29   2.11291e+07   4.48612e+07   1.02294e+06    110740     61376    255713      1935        45
      0.31   2.17471e+07   4.61161e+07   1.05188e+06    114180     62987    263041      2013        60
      0.33   2.22167e+07   4.70914e+07   1.07572e+06    116897     64507    268010      2085        63
      0.35   2.26471e+07   4.80282e+07   1.09804e+06    119361     65743    273175      2115        79
      0.37   2.30716e+07   4.89573e+07    1.1174e+06    121624     67359    278897      2146        65
      0.39   2.35682e+07    5.0046e+07   1.14082e+06    124444     68945    286342      2187        54
      0.41   2.41281e+07   5.11628e+07   1.16805e+06    126804     70747    292474      2293        71
      0.43   2.48505e+07   5.27236e+07   1.20429e+06    130951     72935    300611      2346        77
      0.45   2.54564e+07   5.39607e+07   1.23392e+06    133461     75091    308074      2419        93
      0.47   2.60961e+07   5.53766e+07   1.26354e+06    137366     77289    315136      2435        71
      0.49   2.68784e+07   5.70461e+07   1.30106e+06    141569     78802    325572      2600        77
      0.51   2.75358e+07   5.83846e+07   1.33395e+06    145241     80974    333124      2611        77
      0.53   2.82536e+07    5.9961e+07   1.36781e+06    148352     83774    341855      2665        87
      0.55   2.90946e+07   6.17156e+07   1.40975e+06    151976     86092    351067      2761        73
      0.57   3.00455e+07   6.37122e+07   1.45574e+06    157926     88904    363536      2794        78
      0.59   3.10507e+07   6.58389e+07   1.50284e+06    163565     91435    375541      2811        94
      0.61   3.21261e+07   6.81017e+07   1.55778e+06    169354     94756    388213      3036        98
      0.63   3.31095e+07   7.02055e+07   1.60247e+06    174629     97767    400216      3098        98
      0.65   3.38764e+07   7.18934e+07   1.64311e+06    178390    100331    409056      3241        86
      0.67   3.49135e+07   7.40166e+07   1.69084e+06    184765    104236    421572      3239       106
      0.69   3.59102e+07   7.62798e+07   1.73827e+06    190297    107566    435647      3296        88
      0.71   3.70361e+07   7.85858e+07   1.79258e+06    194986    110436    447492      3382        96
      0.73   3.81015e+07   8.08006e+07   1.84347e+06    201610    113524    460998      3580       108
      0.75   3.88495e+07   8.24464e+07   1.88189e+06    204896    115566    469224      3715        88
      0.77   3.99105e+07    8.4674e+07   1.93264e+06    211862    119413    482353      3836       114
      0.79   4.13138e+07   8.76436e+07   1.99771e+06    219107    122992    499589      3978       119
      0.81   4.23544e+07   8.98334e+07   2.05128e+06    225051    126435    511560      3977       130
      0.83   4.36909e+07   9.26148e+07   2.11273e+06    231858    130958    527574      4178       122
      0.85   4.47821e+07   9.49207e+07   2.16696e+06    237397    134135    539774      4258       127
      0.87    4.5835e+07   9.72407e+07   2.21914e+06    243076    137440    552976      4305       116
      0.89   4.66119e+07   9.88332e+07   2.25528e+06    247938    140446    562946      4406       129
      0.91   4.77411e+07   1.01251e+08   2.31205e+06    253536    143630    575349      4524       114
      0.93   4.79525e+07   1.01684e+08   2.31918e+06    255528    144648    577778      4438       111
      0.95   4.79537e+07   1.01738e+08   2.31986e+06    256587    145870    577824      4508       119
      0.97   4.81729e+07   1.02179e+08   2.33105e+06    257337    145608    580803      4469       109
      0.99   4.78962e+07   1.01623e+08    2.3213e+06    256541    145344    577837      4570       133
      1.01   4.73003e+07   1.00387e+08   2.29143e+06    252700    144295    568410      4399       127
      1.03   4.61484e+07   9.78549e+07   2.23055e+06    246623    140978    555377      4335       119
      1.05   4.44861e+07   9.43993e+07    2.1535e+06    239478    136118    536412      4268       101
      1.07   4.33082e+07   9.17514e+07   2.09471e+06    232384    131803    519381      4043       115
      1.09   4.07712e+07    8.6503e+07   1.97163e+06    219310    125104    489605      3936        95
      1.11   3.80771e+07    8.0881e+07   1.84116e+06    204900    116638    457584      3584        76
      1.13   3.52136e+07   7.47049e+07   1.70286e+06    189446    107905    422753      3334        92
      1.15   3.22047e+07   6.82385e+07   1.56011e+06    172534     99000    384701      3007        82
      1.17   2.87993e+07   6.10929e+07   1.39664e+06    154292     88603    344927      2752        57
      1.19   2.53455e+07   5.37118e+07   1.22518e+06    136420     77693    302900      2480        61
      1.21   2.21666e+07   4.69732e+07   1.07136e+06    118993     68217    265139      2125        40
      1.23   1.87113e+07   3.97461e+07        904853    100800     57308    223778      1693        38
      1.25   1.57619e+07   3.34514e+07        763188     84935     48252    188687      1477        44
      1.27   1.31821e+07   2.79435e+07        638425     71229     40529    156360      1254        19
      1.29   1.08123e+07   2.29193e+07        522281     58225     32782    128893      1021        25
      1.31   8.47299e+06   1.79376e+07        410841     45512     25920    100319       773        14
      1.33   6.59575e+06   1.39678e+07        319544     35646     20150     78664       616         8
      1.35   5.28811e+06   1.12022e+07        255902     28845     16199     63242       533        11
      1.37   3.90952e+06   8.29924e+06        189894     21326     11903     46670       382         3
      1.39   2.87173e+06   6.06594e+06        139237     15637      8798     34116       244         7
      1.41   2.07148e+06   4.40188e+06        100510     11235      6489     24671       194         1
      1.43   1.48178e+06   3.14494e+06         71907      8055      4576     17675       150         1
      1.45   1.02402e+06   2.16236e+06         49589      5553      3148     12073        89         1
      1.47        733982   1.55751e+06         35494      4001      2310      8704        62         2
      1.49        558824   1.19515e+06         26938      3055      1761      6722        59         1
      1.51        394654        831957         18960      2190      1229      4702        35         0
      1.53        250800        527219         12289      1289       796      2902        25         1
      1.55        176014        369260          8531       938       561      2024        15         0
      1.57        113311        240093          5464       649       350      1346        15         0
      1.59         62837        135276          3083       331       174       753         5         0
      1.61         41189         85784          2021       244       130       470         2         0
      1.63         18224         38891           891        98        65       220         1         0
      1.65         10434         21896           534        68        41       127         0         1
      1.67          1971          4029           101        14         4        33         2         0
      1.69          2799          5998           143        17         2        30         0         0
      1.71           295           746            22         4         1         4         0         0
      1.73           469           910            22         0         1         2         0         0
      1.75           625           966            31         0         1         4         1         0
      1.77           556          1226            20         5         3         8         0         0
      1.79           291           684            15         3         2         4         0         0
      1.81          1210          2574            56         5         2        17         0         0
      1.83           633          1362            23         0         0         6         0         0
      1.85           776          1572            35         8         1        12         0         0
      1.87           911          1853            47         2         4         9         0         0
      1.89          2450          5525           111        15         7        36         0         0
      1.91            95           202             9         2         0         0         0         0
      1.93             0             0             0         0         0         0         0         0
      1.95             0             0             0         0         0         0         0         0
      1.97             0             0             0         0         0         0         0         0
      1.99             0             0             0         0         0         0         0         0
      2.01             0             0             0         0         0         0         0         0
